1707775584.00
64.000000
-0.00
-0.00
-0.00
-0.00
-0.00
-0.00
-0.00
-0.00
-0.00
-0.00
0.00
0.01
0.01
-0.00
-0.03
-0.05
-0.05
0.00
0.13
0.36
0.66
1.01
1.37
1.72
2.06
2.40
2.79
3.24
3.80
4.42
5.06
5.66
6.20
6.68
7.15
7.68
8.31
9.14
10.09
11.04
11.88
12.56
13.14
13.76
14.65
15.96
17.91
20.32
22.90
25.38
27.58
29.57
31.68
34.32
37.81
42.54
48.15
54.10
59.83
64.97
69.58
74.14
79.34
85.71
93.76
103.00
112.62
121.73
129.77
136.75
143.30
150.75
157.77
166.64
177.95
191.79
206.97
220.57
228.25
225.36
208.53
176.87
132.76
80.05
23.07
-34.94
-92.44
-149.16
-205.23
-260.37
-313.74
-363.87
-409.83
-450.91
-486.50
-515.74
-537.23
-549.22
-549.96
-538.37
-514.21
-478.67
-433.88
-382.44
-327.00
-269.81
-212.58
-156.59
-102.85
-52.23
-5.72
35.81
71.71
101.69
125.89
144.83
159.21
169.73
177.02
181.47
183.36
182.93
180.45
176.26
170.77
164.40
157.47
150.25
142.88
135.42
127.92
120.42
112.98
105.69
98.60
91.77
85.23
79.01
73.11
67.53
62.31
57.43
52.92
48.78
45.00
41.58
38.51
35.79
33.41
31.36
29.65
28.27
27.21
26.45
25.99
25.82
25.93
26.31
26.94
27.80
28.86
30.06
31.31
32.49
33.48
34.10
34.17
33.54
32.06
29.66
26.32
22.09
17.05
11.42
5.43
-0.65
-6.52
-11.94
-16.67
-20.54
-23.45
-25.37
-26.31
-26.37
-25.67
-24.35
-22.57
-20.44
-18.09
-15.61
-13.06
-10.47
-7.89
-5.33
-2.79
-0.26
2.27
4.82
7.43
10.12
12.95
15.88
18.89
21.98
25.15
28.40
31.74
35.17
38.75
42.53
46.40
50.32
54.28
58.30
62.43
66.73
71.30
76.26
81.79
87.73
93.98
100.45
107.04
113.64
120.21
126.76
133.35
140.09
146.70
152.79
157.94
161.79
164.04
164.42
162.59
157.98
152.30
146.13
139.57
132.54
124.91
116.64
107.87
98.92
90.27
82.44
75.44
68.76
61.77
53.85
44.66
34.34
23.50
13.03
3.79
-4.03
-11.64
-20.60
-32.28
-47.21
-64.75
-83.25
-100.60
-114.97
-125.56
-134.72
-145.48
-160.62
-181.40
-207.05
-235.14
-262.70
-287.52
-309.03
-331.36
-359.45
-397.36
-446.87
-507.28
-576.34
-651.00
-727.22
-799.20
-863.56
-916.29
-954.91
-979.77
-994.30
-1003.26
-1009.98
-1013.86
-984.70
-899.79
-748.71
-540.75
-302.48
-66.04
143.41
312.99
440.22
528.53
579.75
598.02
590.72
568.47
543.75
526.18
519.21
519.91
521.60
514.35
492.12
453.91
403.60
348.04
295.72
253.72
226.80
217.71
223.86
242.17
268.91
300.47
334.02
368.92
404.62
439.99
473.10
500.23
517.66
522.21
511.84
476.32
412.50
324.25
221.67
117.50
22.17
-57.94
-120.70
-166.83
-198.58
-217.19
-224.34
-222.86
-215.47
-204.85
-193.49
-183.57
-176.86
-174.66
-176.57
-182.18
-191.40
-204.61
-221.80
-242.18
-264.16
-285.78
-305.07
-319.63
-327.91
-330.20
-326.70
-317.78
-304.25
-287.15
-267.81
-247.60
-227.45
-208.24
-190.37
-175.36
-164.28
-157.62
-155.40
-157.23
-162.34
-169.44
-177.08
-183.15
-185.20
-180.74
-167.19
-142.88
-107.59
-62.55
-10.22
45.69
102.57
158.86
213.72
267.77
321.33
373.38
421.48
462.44
491.76
508.17
512.96
508.99
501.88
496.66
496.03
500.20
507.30
512.43
514.37
514.57
515.94
525.17
549.45
593.89
659.68
742.73
830.42
910.44
971.70
986.29
937.02
820.78
649.57
446.61
258.73
100.54
-27.95
-132.35
-218.12
-290.56
-349.60
-395.03
-428.55
-453.82
-478.52
-505.76
-535.98
-567.98
-597.62
-620.30
-633.14
-635.29
-627.82
-615.51
-597.11
-570.71
-535.29
-490.50
-437.51
-379.26
-319.30
-261.08
-209.09
-165.45
-131.27
-106.74
-90.60
-80.86
-75.99
-75.05
-76.64
-78.62
-76.16
-63.67
-37.46
2.13
49.99
97.62
136.47
161.45
172.02
171.66
165.16
155.98
145.58
134.14
123.45
112.99
102.80
92.77
82.08
69.64
54.60
37.14
18.80
0.55
-15.05
-26.58
-34.03
-38.47
-40.28
-40.15
-37.59
-31.11
-18.83
0.61
27.14
58.35
87.30
106.65
109.46
92.44
58.22
14.73
-27.53
-59.94
-78.96
-86.66
-88.42
-90.42
-96.77
-108.30
-122.79
-136.46
-145.21
-145.52
-135.74
-116.48
-90.80
-65.09
-44.76
-32.50
-27.66
-27.51
-28.88
-29.42
-28.48
-26.01
-21.62
-13.96
-1.79
15.08
34.92
55.03
71.08
81.43
86.14
86.64
85.25
83.98
84.01
84.91
85.66
84.90
81.87
76.40
69.04
60.97
53.33
48.24
44.82
42.05
38.75
33.99
27.17
18.30
8.18
-2.93
-12.80
-20.26
-24.66
-26.42
-26.39
-25.67
-24.97
-23.75
-21.36
-16.34
-7.77
4.64
19.71
35.45
49.65
60.50
67.31
70.58
72.05
73.54
76.85
82.80
91.48
101.29
108.58
108.08
94.73
66.35
24.97
-22.97
-69.42
-106.94
-131.71
-144.51
-149.50
-151.11
-151.50
-150.44
-143.64
-131.12
-115.04
-99.07
-89.07
-87.82
-95.96
-112.14
-133.08
-154.08
-170.06
-175.67
-167.31
-139.32
-95.35
-45.41
-0.79
31.12
49.15
56.79
59.57
61.35
62.86
61.75
55.94
45.76
34.27
25.72
23.30
28.04
39.13
53.02
65.03
72.25
74.57
74.66
76.59
83.83
97.90
115.58
134.43
151.59
164.47
170.26
165.41
146.21
110.82
61.96
7.96
-38.75
-67.03
-71.88
-56.98
-32.82
-11.17
0.70
2.77
0.55
0.65
5.91
14.24
20.54
20.38
12.59
-0.49
-14.61
-26.31
-34.29
-39.43
-43.50
-47.89
-52.65
-56.55
-57.96
-55.62
-49.44
-40.74
-31.91
-25.41
-22.70
-23.53
-26.16
-28.22
-27.87
-24.53
-19.07
-13.21
-8.68
-6.44
-6.34
-7.36
-8.18
-7.88
-6.06
-3.12
0.09
2.74
4.38
5.05
5.14
5.23
5.73
6.82
8.38
10.11
11.76
13.18
14.36
15.41
16.46
17.64
19.00
20.51
22.08
23.63
25.09
26.38
27.43
28.18
28.58
28.56
27.92
26.61
24.55
21.71
18.06
13.65
8.61
3.12
-2.55
-7.70
-12.30
-16.19
-19.24
-21.43
-22.83
-23.54
-23.69
-23.37
-22.89
-22.11
-21.05
-19.78
-18.46
-17.27
-16.37
-15.87
-15.68
-15.62
-15.44
-14.99
-14.28
-13.52
-13.06
-13.22
-14.11
-15.54
-17.04
-18.07
-18.29
-17.83
-17.24
-17.32
-18.70
-21.62
-25.66
-29.86
-33.08
-34.62
-34.54
-33.79
-33.79
-35.79
-40.45
-47.28
-54.78
-61.21
-65.12
-66.18
-65.32
-64.23
-64.82
-68.93
-77.54
-90.07
-103.77
-113.86
-114.61
-101.58
-73.98
-34.80
8.94
49.20
80.26
100.75
113.56
123.67
135.26
149.73
166.10
180.66
188.68
186.09
170.06
140.22
99.71
53.73
10.73
-20.15
-32.23
-24.24
-1.27
27.69
53.47
70.54
78.18
78.89
74.79
65.59
49.25
24.98
-4.21
-31.56
-49.57
-54.77
-50.01
-43.31
-43.10
-53.66
-73.40
-96.66
-117.86
-134.80
-149.03
-161.54
-173.21
-180.95
-179.53
-164.88
-137.54
-102.95
-69.14
-43.12
-28.17
-22.80
-22.34
-21.74
-18.01
-10.87
-1.61
8.52
19.19
30.99
44.48
59.53
73.93
86.28
94.96
99.28
99.62
97.27
93.82
90.50
87.83
85.50
82.94
79.38
74.57
68.85
63.02
57.98
54.23
51.76
49.96
48.26
46.02
43.00
39.36
35.55
32.06
29.09
27.12
25.17
22.76
19.50
15.38
10.70
5.98
1.75
-1.67
-4.22
-6.15
-7.61
-8.76
-9.52
-9.65
-8.78
-6.60
-3.07
1.54
6.68
11.96
17.05
21.81
26.29
30.64
35.03
39.75
45.23
51.86
59.74
68.01
74.71
77.31
73.60
62.73
45.59
24.49
2.42
-17.78
-34.24
-46.13
-53.38
-56.05
-54.02
-47.07
-35.58
-20.82
-5.16
8.61
18.23
23.11
24.51
24.83
26.21
29.14
33.03
37.13
41.66
47.94
57.53
70.71
85.60
100.17
110.70
114.66
112.01
104.98
96.55
89.05
83.29
78.92
75.22
71.54
67.74
63.86
59.65
54.61
48.36
41.06
33.44
26.65
21.41
17.90
15.42
12.58
7.73
-0.22
-11.28
-24.14
-36.56
-46.30
-51.85
-53.18
-51.95
-50.90
-52.70
-58.91
-69.43
-82.49
-95.46
-105.92
-112.60
-115.66
-116.31
-116.06
-116.08
-116.98
-118.44
-119.25
-117.63
-111.97
-101.64
-87.38
-71.28
-56.08
-44.68
-38.62
-37.60
-39.82
-43.14
-46.05
-48.11
-49.63
-51.14
-54.27
-59.84
-67.28
-74.72
-80.20
-82.55
-81.59
-77.85
-72.34
-69.02
-71.29
-80.32
-94.63
-111.47
-127.95
-141.22
-148.55
-147.79
-142.38
-136.58
-132.77
-130.65
-129.09
-127.61
-126.42
-125.77
-125.73
-132.16
-150.14
-180.97
-221.60
-267.84
-316.14
-363.82
-408.11
-410.88
-349.74
-230.57
-85.47
51.61
162.30
244.10
302.20
343.40
373.13
388.87
388.05
372.16
347.25
319.74
294.86
274.68
258.92
246.21
229.92
204.75
169.59
131.81
97.15
69.56
50.51
39.68
36.05
34.57
30.92
23.61
13.65
3.61
-3.62
-6.20
-6.63
-3.88
-0.20
1.66
0.22
-4.96
-12.69
-20.93
-28.26
-34.25
-39.34
-46.03
-56.91
-67.26
-77.98
-90.40
-104.98
-120.65
-134.09
-139.71
-132.17
-108.45
-69.97
-23.91
20.59
55.60
77.11
85.94
86.47
83.36
79.63
76.08
71.44
65.24
58.37
52.57
49.25
48.69
49.68
50.44
49.36
45.56
39.77
33.63
28.79
26.17
25.64
26.14
26.36
25.34
22.68
18.97
15.26
12.48
10.99
10.51
10.32
9.74
8.44
6.54
4.57
3.09
2.35
2.14
1.93
1.15
-0.40
-2.46
-4.41
-5.62
-5.81
-5.30
-4.72
-4.82
-6.07
-8.39
-11.19
-13.59
-14.74
-13.96
-10.76
-5.08
2.45
10.16
15.63
16.48
11.59
1.84
-9.99
-20.26
-26.11
-26.61
-23.01
-17.71
-12.92
-9.65
-7.57
-5.66
-3.07
0.27
3.80
6.77
8.78
9.89
10.44
10.81
11.01
10.76
9.64
7.45
4.40
1.20
-1.26
-2.25
-1.43
1.05
4.66
8.71
12.48
15.29
16.63
16.22
14.05
10.52
6.31
2.49
0.21
0.37
3.13
7.77
12.95
17.40
20.50
22.39
23.49
23.87
23.03
20.30
15.58
9.96
5.33
3.51
4.92
8.31
11.19
11.11
6.87
-1.11
-11.23
-21.34
-29.52
-34.65
-36.53
-35.75
-33.36
-30.41
-27.51
-24.60
-21.10
-16.37
-10.29
-3.26
4.08
11.50
19.59
29.63
42.68
58.76
76.31
92.45
104.02
108.71
105.94
96.86
83.74
69.09
55.11
43.55
35.86
33.17
35.84
42.84
51.59
58.38
59.56
52.87
38.15
17.17
-7.20
-31.98
-54.66
-73.10
-85.36
-89.79
-85.76
-74.64
-60.16
-47.67
-42.39
-47.42
-62.19
-82.55
-102.19
-114.98
-117.01
-107.62
-88.88
-64.28
-37.24
-10.38
14.52
36.01
52.63
63.18
67.15
65.19
59.10
51.30
44.04
38.71
35.68
34.53
34.47
34.66
34.30
32.66
29.36
24.51
18.96
14.12
11.53
12.31
16.60
23.63
31.87
39.47
44.74
46.57
44.76
40.06
33.91
27.79
22.84
19.39
17.11
15.50
14.32
14.01
15.47
19.64
26.63
35.66
45.23
53.74
60.00
63.61
64.99
65.08
64.96
64.87
64.68
64.27
63.92
64.46
66.89
71.69
78.25
84.64
86.73
80.53
63.57
35.82
-0.43
-41.56
-83.56
-122.46
-154.43
-178.07
-192.90
-199.70
-200.80
-200.08
-202.49
-212.53
-232.71
-262.42
-301.13
-346.78
-396.39
-446.31
-492.38
-530.72
-558.13
-572.61
-556.13
-497.57
-395.03
-258.72
-107.37
39.95
170.11
277.85
363.40
429.73
477.47
506.85
518.75
515.73
502.22
482.84
462.48
443.25
425.73
407.33
385.33
358.21
326.75
294.02
263.60
238.84
221.52
211.72
206.33
201.15
191.97
175.59
154.75
131.03
105.63
78.49
48.39
12.62
-31.60
-85.73
-148.89
-217.74
-287.72
-353.74
-411.79
-459.77
-498.35
-530.59
-561.09
-594.23
-631.95
-672.53
-709.24
-731.84
-729.70
-695.86
-629.82
-538.36
-433.93
-331.20
-243.52
-179.17
-139.68
-119.99
-110.74
-101.50
-84.16
-54.96
-14.49
34.14
87.85
144.93
204.58
264.88
321.53
368.26
398.62
408.34
396.37
364.68
317.04
258.34
194.38
131.94
78.09
38.83
17.21
12.52
20.89
37.19
57.21
78.70
101.09
123.87
145.42
163.09
174.71
180.43
183.39
188.34
198.81
214.44
230.52
239.75
236.11
217.89
188.19
152.58
115.69
79.15
42.27
4.18
-34.47
-71.78
-106.36
-138.71
-170.69
-203.02
-233.32
-255.91
-264.26
-254.68
-228.33
-190.32
-146.39
-99.87
-51.11
0.18
51.44
95.84
123.88
127.61
104.46
58.37
-2.36
-69.47
-138.20
-207.73
-278.54
-348.65
-411.58
-457.65
-477.97
-468.64
-432.69
-378.71
-317.02
-255.68
-198.49
-145.22
-93.76
-42.34
9.56
61.61
113.69
166.55
221.37
278.28
335.04
386.73
426.94
450.36
455.11
443.74
422.14
397.02
373.05
351.36
329.91
305.44
275.58
240.22
201.33
161.89
124.69
91.51
62.86
38.04
15.46
-6.69
-29.54
-52.98
-75.34
-94.03
-106.65
-112.16
-111.48
-107.12
-102.27
-99.59
-100.66
-105.96
-115.17
-127.45
-141.48
-155.35
-166.69
-173.20
-173.26
-166.37
-153.09
-134.56
-112.11
-86.94
-59.93
-31.81
-3.10
25.80
54.56
82.78
109.92
135.18
157.80
177.20
193.21
205.99
215.85
223.11
228.10
231.38
233.89
236.84
241.29
247.66
255.49
263.74
271.28
277.39
281.94
285.10
286.92
287.05
284.78
279.55
271.37
260.98
249.60
238.45
228.22
219.09
210.85
203.28
196.12
188.88
180.40
168.82
152.11
129.05
100.19
68.23
37.43
12.23
-4.28
-11.32
-10.47
-4.75
2.42
8.25
10.90
9.55
4.58
-2.31
-8.25
-9.92
-5.11
5.72
18.76
27.73
26.57
12.46
-12.25
-40.61
-64.18
-76.93
-78.00
-71.74
-65.22
-64.50
-72.04
-86.18
-102.80
-118.12
-130.62
-141.55
-154.01
-171.58
-196.94
-231.05
-272.45
-316.81
-357.14
-384.99
-392.55
-375.01
-332.23
-268.76
-192.42
-111.94
-35.13
31.94
85.05
121.89
142.53
149.87
149.24
146.65
146.35
148.71
150.11
144.68
127.12
95.17
50.20
-4.04
-63.89
-127.16
-192.97
-259.68
-322.94
-375.40
-408.47
-415.50
-394.30
-347.58
-281.01
-200.49
-110.40
-14.15
83.73
176.05
253.54
307.77
334.76
336.99
322.12
299.48
275.94
253.87
231.89
207.26
178.68
147.04
114.69
83.52
53.49
22.59
-12.18
-53.54
-103.15
-160.99
-225.23
-291.96
-355.06
-407.08
-441.04
-452.56
-441.37
-411.01
-366.58
-312.03
-248.69
-176.59
-97.29
-16.76
54.50
104.53
124.60
112.81
74.41
19.18
-42.34
-101.60
-153.03
-194.14
-224.76
-246.59
-262.56
-275.85
-288.63
-301.21
-312.03
-318.87
-320.25
-316.14
-307.39
-294.78
-278.51
-258.60
-235.46
-210.16
-183.90
-157.07
-128.82
-97.87
-63.36
-25.38
15.53
58.97
104.53
151.03
195.75
234.56
263.39
280.41
287.45
289.38
291.64
297.43
306.11
314.15
317.82
316.03
311.37
308.86
312.94
324.66
340.55
353.96
357.80
347.02
320.29
280.11
231.94
183.02
141.39
114.76
109.10
126.69
164.64
214.93
266.17
307.16
330.41
334.23
322.31
301.48
278.62
258.42
242.66
230.78
221.03
211.53
200.82
187.87
171.98
152.75
129.76
102.78
71.60
36.12
-3.40
-46.49
-92.77
-142.41
-195.69
-251.73
-307.00
-355.00
-388.01
-400.27
-391.26
-366.71
-336.79
-311.79
-298.24
-297.09
-304.90
-316.95
-330.27
-344.50
-360.27
-376.59
-389.44
-392.98
-382.76
-359.24
-328.81
-301.28
-285.02
-282.02
-285.71
-283.59
-262.56
-214.40
-138.70
-42.10
64.85
171.04
266.98
345.37
401.06
431.25
436.21
419.67
387.92
348.41
307.80
270.74
239.60
214.79
195.21
178.57
161.84
142.08
117.60
88.98
59.03
31.74
10.56
-3.22
-11.21
-17.27
-25.88
-40.27
-61.20
-86.83
-113.90
-139.53
-162.78
-185.27
-211.06
-245.03
-291.27
-350.89
-420.80
-493.26
-557.08
-600.15
-612.60
-590.01
-535.56
-460.45
-381.57
-316.84
-279.45
-273.38
-292.33
-322.49
-348.39
-358.81
-350.25
-326.48
-295.12
-263.34
-235.10
-211.01
-190.23
-172.41
-158.32
-149.15
-145.22
-145.19
-146.62
-146.92
-144.33
-138.21
-128.73
-116.26
-100.86
-82.24
-60.14
-34.50
-5.63
25.81
59.20
93.94
129.86
167.20
206.49
247.99
290.51
329.93
358.51
366.30
344.72
291.20
211.99
121.60
38.13
-23.24
-55.44
-60.73
-47.80
-26.50
-3.58
18.63
40.54
62.43
82.72
98.38
106.85
108.15
105.37
103.63
107.70
120.01
139.70
163.29
186.34
205.43
219.49
229.83
239.53
252.28
271.19
297.73
331.37
369.23
405.90
433.92
445.46
434.82
401.03
348.31
284.96
220.76
164.36
121.35
93.89
81.17
80.31
87.52
97.88
106.12
108.19
102.86
92.17
80.44
72.34
71.42
80.70
100.35
128.07
160.15
193.00
223.82
250.66
272.07
287.31
300.49
316.27
338.64
369.61
408.50
451.28
490.95
519.49
531.25
531.04
526.40
524.17
527.09
533.85
540.35
541.74
534.22
515.91
493.29
469.59
442.44
405.54
354.08
289.01
217.46
149.75
51.06
-89.21
-260.12
-435.81
-592.87
-719.71
-814.28
-878.87
-917.82
-937.07
-936.26
-917.79
-886.77
-849.46
-810.95
-774.25
-740.94
-711.95
-688.02
-663.53
-633.98
-596.92
-553.74
-505.89
-454.31
-399.84
-343.82
-288.12
-230.89
-170.85
-107.73
-42.41
23.89
89.67
152.71
209.94
258.10
296.77
326.80
350.18
369.51
387.71
407.28
429.41
453.36
476.33
494.24
501.74
493.19
464.59
415.53
349.80
274.55
197.91
126.00
60.72
-0.48
-62.28
-127.75
-195.02
-256.94
-303.77
-327.62
-326.15
-304.04
-270.78
-236.30
-207.05
-183.99
-164.15
-143.76
-121.02
-96.40
-72.16
-50.53
-31.90
-14.65
4.98
30.94
65.72
109.50
161.21
218.18
276.57
332.01
379.76
416.70
440.33
448.36
439.29
414.43
376.54
328.93
274.69
215.42
153.85
92.55
34.39
-16.26
-51.42
-63.30
-48.28
-9.53
42.29
95.98
141.97
174.89
182.06
159.47
113.32
56.75
10.03
-26.89
-56.59
-79.40
-95.89
-106.26
-111.31
-114.77
-122.95
-142.41
-177.80
-225.82
-277.05
-318.58
-337.99
-325.50
-279.09
-206.57
-123.89
-50.57
-0.09
22.46
20.50
1.39
-25.26
-51.53
-73.09
-88.95
-100.40
-106.97
-108.23
-104.66
-100.91
-101.85
-110.57
-127.34
-149.99
-175.67
-200.27
-221.67
-239.94
-260.02
-285.62
-316.58
-348.74
-376.41
-395.23
-402.04
-397.67
-362.99
-290.88
-189.04
-77.28
24.49
105.95
160.17
195.86
218.54
228.37
219.48
186.77
131.22
58.05
-24.78
-108.28
-182.55
-229.13
-235.13
-203.41
-150.58
-96.92
-55.72
-30.03
-15.68
-5.55
4.76
14.81
20.21
17.98
8.44
-2.96
-10.81
-12.44
-7.94
0.16
7.27
8.98
3.62
-6.97
-18.76
-27.96
-32.19
-32.88
-32.02
-32.43
-36.46
-44.82
-56.32
-68.81
-80.58
-90.89
-99.82
-107.70
-115.31
-123.11
-131.03
-138.53
-144.94
-149.93
-153.32
-154.77
-153.28
-147.74
-137.19
-121.23
-100.36
-75.96
-50.03
-24.31
0.39
24.63
49.72
76.86
106.18
136.30
164.67
188.57
206.27
217.87
225.32
231.53
239.34
250.77
266.68
286.53
307.94
326.22
334.66
326.11
295.89
244.42
178.22
107.90
43.95
-7.61
-47.39
-81.06
-115.17
-152.66
-190.97
-223.55
-243.78
-248.70
-240.49
-224.79
-207.43
-191.34
-175.63
-156.69
-131.04
-97.60
-58.66
-18.88
17.13
46.96
71.56
94.74
121.17
154.23
194.87
241.60
291.64
342.01
389.87
432.10
464.77
483.77
486.17
471.81
443.68
406.61
364.77
319.82
270.89
216.53
157.24
96.78
41.41
-2.68
-32.20
-48.39
-56.36
-62.51
-71.53
-84.05
-96.39
-102.41
-96.74
-77.95
-50.19
-22.40
-4.91
-5.27
-24.88
-58.43
-95.93
-126.66
-143.07
-142.87
-129.27
-109.42
-91.93
-84.21
-90.75
-112.18
-145.60
-185.66
-225.83
-259.64
-281.61
-287.83
-276.52
-248.63
-207.97
-160.85
-114.55
-75.26
-46.09
-26.10
-10.79
6.03
29.96
64.18
108.46
159.23
210.45
254.78
285.16
296.42
286.68
258.17
217.02
171.71
130.78
100.47
83.02
76.47
75.92
75.69
71.45
61.53
46.82
29.69
12.77
-1.96
-13.19
-20.19
-22.79
-21.92
-19.97
-20.73
-28.00
-43.69
-66.16
-90.09
-108.14
-113.78
-104.00
-80.44
-48.63
-15.76
11.71
29.76
37.31
35.80
28.50
19.49
12.75
11.07
15.25
23.78
33.49
41.00
44.18
42.89
38.67
33.52
28.78
24.81
21.56
19.31
18.98
21.53
27.01
33.89
39.61
41.85
39.93
35.40
31.27
30.49
34.38
42.01
50.87
58.16
62.09
62.51
60.59
58.01
56.15
55.89
57.94
63.08
72.33
86.35
104.59
124.76
142.99
154.97
157.40
149.39
132.92
112.21
91.84
74.74
61.02
48.37
33.89
16.19
-3.40
-21.43
-33.98
-39.09
-37.72
-33.31
-30.07
-31.57
-39.93
-55.83
-78.51
-105.03
-130.92
-151.02
-161.33
-160.99
-153.34
-144.94
-142.81
-150.91
-166.26
-180.43
-182.41
-162.93
-117.94
-49.96
32.93
119.66
199.56
267.08
320.25
359.81
387.13
403.04
407.91
402.20
386.49
361.29
329.68
294.17
256.97
220.35
187.35
161.89
147.52
145.50
136.40
105.52
46.03
-36.27
-126.69
-210.66
-279.92
-333.22
-373.50
-404.42
-425.50
-435.16
-432.42
-418.84
-398.49
-376.50
-357.23
-343.06
-333.95
-326.15
-315.67
-299.85
-278.52
-253.42
-227.35
-202.89
-181.76
-164.32
-148.98
-134.02
-118.37
-102.02
-85.80
-70.82
-57.86
-47.30
-38.79
-31.25
-23.72
-15.44
-5.91
5.33
18.97
36.33
56.25
78.98
104.98
133.83
163.62
190.82
211.10
220.71
217.95
203.78
181.91
156.83
132.35
110.58
91.99
76.05
62.18
50.19
40.15
32.31
26.28
21.14
15.89
9.94
3.43
-2.96
-8.32
-12.13
-14.24
-15.16
-15.70
-16.54
-17.99
-19.84
-21.61
-22.80
-23.17
-22.72
-21.79
-20.82
-20.16
-19.94
-20.09
-20.38
-20.54
-20.42
-19.89
-18.97
-17.80
-16.56
-15.44
-14.54
-13.82
-13.15
-12.34
-11.26
-9.94
-8.58
-7.44
-6.73
-6.53
-6.70
-7.02
-7.23
-7.16
-6.79
-6.19
-5.51
-4.92
-4.52
-4.36
-4.41
-4.62
-4.90
-5.17
-5.37
-5.43
-5.34
-5.14
-4.92
-4.78
-4.76
-4.84
-4.90
-4.82
-4.54
-4.05
-3.44
-2.82
-2.28
-1.84
-1.49
-1.19
-0.91
-0.69
-0.55
-0.54
-0.66
-0.89
-1.18
-1.46
-1.69
-1.81
-1.77
-1.58
-1.28
-0.98
-0.79
-0.79
-0.99
-1.31
-1.63
-1.84
-1.91
-1.88
-1.81
-1.73
-1.66
-1.58
-1.49
-1.41
-1.35
-1.33
-1.33
-1.30
-1.23
-1.15
-1.07
-1.05
-1.08
-1.14
-1.16
-1.09
-0.92
-0.70
-0.51
-0.49
-0.75
-1.29
-2.01
-2.69
-3.11
-3.10
-2.67
-1.95
-1.20
-0.66
-0.52
-0.78
-1.33
-1.99
-2.53
-2.78
-2.69
-2.34
-1.92
-1.63
-1.59
-1.81
-2.16
-2.48
-2.66
-2.68
-2.58
-2.46
-2.41
-2.45
-2.55
-2.65
-2.69
-2.68
-2.70
-2.94
-3.57
-4.67
-6.10
-7.51
-8.55
-8.96
-8.70
-8.00
-7.30
-7.06
-7.62
-8.98
-10.77
-12.49
-13.61
-13.83
-13.19
-12.12
-11.19
-10.86
-11.07
-11.21
-10.40
-7.70
-2.36
5.98
17.17
30.44
44.32
56.95
66.39
70.21
66.49
55.11
38.29
19.82
3.13
-10.34
-21.72
-32.76
-44.87
-58.54
-73.32
-88.16
-101.94
-112.22
-117.69
-118.05
-113.63
-105.20
-93.65
-79.78
-64.55
-49.20
-35.06
-23.17
-13.29
-3.83
7.25
21.07
37.00
52.43
63.93
68.88
66.60
58.91
49.01
39.75
32.29
25.73
17.99
7.26
-6.70
-22.39
-37.09
-48.20
-54.38
-56.03
-54.82
-52.72
-50.75
-48.23
-43.00
-32.17
-13.50
13.41
46.37
80.79
110.70
130.54
136.93
130.25
114.77
97.38
85.19
82.75
90.11
102.49
112.26
112.02
97.77
70.37
34.91
-1.67
-33.37
-56.89
-71.95
-80.18
-83.53
-83.18
-79.22
-71.13
-58.52
-41.82
-22.52
-3.19
13.88
28.31
42.95
63.85
98.31
151.04
220.69
298.48
369.21
417.10
431.78
411.79
363.95
299.42
229.38
162.65
105.70
61.96
33.43
20.11
19.16
24.60
28.66
24.31
7.64
-21.27
-61.65
-112.03
-170.55
-234.38
-299.62
-362.18
-420.11
-474.95
-518.34
-543.94
-548.24
-533.26
-505.23
-469.91
-428.42
-377.12
-310.51
-225.35
-126.61
-27.22
54.85
103.31
110.78
83.01
37.42
-3.59
-21.60
-10.90
21.60
61.51
95.25
116.17
125.72
129.78
133.73
139.16
142.67
139.80
128.53
111.08
92.82
79.46
73.87
75.13
79.59
82.25
79.71
71.22
58.71
45.51
34.71
27.90
24.90
24.32
24.27
23.29
20.56
15.84
9.30
1.36
-7.32
-15.70
-22.40
-26.24
-26.77
-25.00
-23.07
-23.65
-28.67
-38.21
-49.95
-59.60
-62.43
-54.26
-33.65
-3.25
30.32
57.86
69.87
60.04
28.01
-19.58
-70.41
-110.05
-126.58
-114.53
-76.96
-24.53
28.16
67.39
84.80
79.54
57.54
28.49
1.57
-18.04
-30.04
-37.61
-43.84
-48.55
-47.86
-36.51
-11.55
24.63
64.74
99.59
122.27
131.52
132.05
132.19
139.53
157.29
182.99
209.60
228.53
233.32
221.69
195.19
157.56
112.63
63.88
14.83
-29.84
-64.26
-82.80
-82.53
-65.28
-37.32
-8.54
11.85
18.65
11.95
-4.28
-24.71
-44.74
-62.16
-76.46
-88.13
-97.63
-105.20
-111.04
-115.57
-119.47
-123.80
-129.78
-138.26
-149.58
-163.16
-177.49
-190.64
-200.99
-208.12
-212.98
-217.69
-224.59
-235.08
-248.41
-261.64
-270.43
-270.74
-260.72
-241.13
-215.26
-187.22
-160.17
-134.49
-107.51
-74.77
-31.94
23.28
90.34
165.93
244.43
318.05
377.56
413.43
419.65
397.31
356.61
314.86
290.23
293.63
323.20
364.32
395.96
400.37
370.56
312.05
238.68
165.20
101.22
49.25
7.19
-27.61
-55.60
-74.75
-83.12
-81.28
-73.18
-64.99
-62.11
-66.60
-76.60
-87.45
-93.98
-93.16
-85.29
-73.62
-62.65
-56.03
-55.05
-58.33
-62.74
-64.98
-63.09
-57.18
-49.10
-41.39
-36.06
-33.81
-33.92
-34.80
-34.81
-33.05
-29.59
-25.29
-21.23
-18.22
-16.46
-15.66
-15.20
-14.56
-13.54
-12.24
-10.98
-10.00
-9.36
-8.87
-8.29
-7.47
-6.50
-5.71
-5.51
-6.14
-7.48
-9.04
-10.11
-10.13
-9.03
-7.30
-5.95
-5.97
-7.90
-11.41
-15.34
-18.18
-18.80
-17.07
-14.04
-11.63
-11.68
-15.09
-21.17
-27.86
-32.63
-33.73
-31.22
-26.88
-23.52
-23.32
-26.98
-33.41
-40.84
-47.83
-53.61
-57.25
-56.52
-48.24
-30.40
-4.98
21.35
39.72
43.85
34.32
18.97
8.90
12.29
29.89
55.08
78.32
92.78
97.53
96.58
95.11
95.70
97.15
96.44
91.49
83.01
74.48
70.25
73.30
83.15
95.49
103.11
98.91
78.90
44.51
2.57
-37.22
-66.30
-80.67
-82.04
-76.31
-69.83
-66.67
-67.10
-68.69
-68.65
-65.87
-61.45
-57.48
-55.29
-54.38
-53.02
-49.36
-43.01
-35.61
-29.78
-27.73
-30.02
-35.23
-41.09
-45.92
-49.61
-53.29
-57.68
-61.52
-61.39
-53.12
-34.28
-6.14
26.52
57.59
82.43
99.23
108.65
111.68
107.74
94.75
71.06
37.68
-0.86
-37.78
-66.62
-83.27
-86.45
-76.93
-56.43
-27.63
5.78
38.82
66.36
84.84
93.77
95.83
95.45
96.60
100.91
106.94
110.82
108.00
95.37
72.82
43.60
13.24
-12.41
-29.47
-37.43
-38.53
-36.13
-32.76
-29.16
-24.64
-18.60
-11.37
-4.48
0.31
2.12
1.61
0.50
0.57
2.89
6.97
11.35
14.13
13.83
10.03
3.46
-4.42
-12.02
-17.92
-22.08
-24.92
-27.18
-29.47
-31.92
-34.20
-35.70
-36.08
-34.99
-32.68
-29.70
-26.72
-24.19
-22.31
-20.95
-19.89
-18.78
-17.43
-15.87
-14.22
-12.63
-11.25
-10.11
-9.18
-8.39
-7.65
-6.88
-6.14
-5.42
-4.73
-4.10
-3.52
-2.98
-2.49
-2.04
-1.60
-1.21
-0.84
-0.50
-0.20
0.09
0.34
0.56
0.76
0.94
1.11
1.28
1.44
1.60
1.71
1.76
1.73
1.60
1.42
1.25
1.14
1.12
1.17
1.25
1.28
1.22
1.06
0.83
0.61
0.46
0.43
0.46
0.47
0.33
-0.05
-0.66
-1.42
-2.13
-2.62
-2.79
-2.74
-2.73
-3.06
-3.99
-5.52
-7.38
-9.11
-10.25
-10.57
-10.27
-9.97
-10.40
-12.09
-15.14
-19.00
-22.75
-25.49
-26.77
-26.94
-27.01
-28.23
-31.53
-37.00
-43.81
-50.50
-55.79
-58.97
-60.41
-61.29
-63.04
-66.87
-73.64
-83.64
-96.46
-110.45
-122.29
-127.69
-122.80
-106.29
-80.54
-51.36
-25.75
-9.08
-3.01
-5.35
-11.99
-19.34
-25.76
-31.58
-37.57
-43.30
-46.63
-44.77
-35.34
-18.08
5.04
30.73
55.86
78.64
99.07
118.33
137.06
155.99
175.09
193.64
210.57
224.02
231.25
228.79
213.75
186.20
148.85
107.96
71.10
44.27
29.56
24.95
26.00
28.36
29.71
30.14
30.94
32.98
35.96
38.41
38.86
36.58
31.68
24.89
17.15
9.19
1.05
-7.77
-17.97
-29.98
-43.92
-59.44
-75.99
-93.46
-112.35
-133.35
-155.33
-175.97
-190.58
-193.94
-182.98
-158.93
-127.48
-96.54
-73.08
-60.01
-55.45
-54.28
-50.83
-41.75
-26.49
-6.86
14.67
36.43
57.88
79.23
100.66
121.65
141.08
157.64
170.61
179.74
184.48
183.32
173.65
152.79
119.78
76.89
29.68
-14.67
-49.90
-73.15
-84.97
-88.25
-86.20
-80.86
-73.14
-63.73
-54.09
-46.47
-43.83
-48.27
-60.60
-80.01
-103.96
-128.25
-147.86
-158.29
-155.70
-142.19
-123.47
-106.38
-96.16
-94.11
-97.57
-101.71
-102.58
-97.84
-88.01
-74.47
-58.08
-38.56
-15.01
12.87
43.94
74.02
99.98
119.11
130.54
135.09
134.85
132.15
128.75
125.32
121.55
116.92
110.67
102.76
93.79
84.87
77.02
70.81
66.08
62.21
58.66
54.82
50.48
45.79
41.25
37.33
34.25
31.97
30.21
28.76
27.35
25.88
24.27
22.72
21.40
20.26
19.20
18.04
16.59
14.67
12.79
10.18
6.74
2.51
-2.37
-7.67
-13.02
-18.01
-22.27
-25.48
-27.52
-28.27
-27.86
-26.70
-25.29
-24.24
-24.07
-25.14
-27.61
-31.41
-36.12
-41.10
-45.78
-49.77
-52.95
-55.17
-56.33
-56.47
-55.63
-53.99
-51.70
-49.07
-46.57
-44.84
-44.19
-44.77
-46.54
-49.06
-51.87
-54.27
-56.05
-57.48
-59.46
-62.38
-66.32
-71.06
-75.66
-79.36
-80.85
-79.90
-77.64
-76.56
-77.72
-81.20
-86.30
-91.18
-94.12
-92.09
-84.08
-71.70
-59.20
-47.70
-35.71
-24.83
-13.69
-0.30
19.70
47.63
80.52
110.69
134.53
150.93
160.80
166.98
173.36
188.26
217.16
259.56
306.35
349.20
378.23
383.44
358.41
280.63
154.50
10.90
-93.39
-145.90
-149.63
-116.55
-57.87
13.82
85.17
147.42
192.69
214.98
210.23
185.13
150.50
115.84
85.94
61.51
44.60
36.44
37.04
42.67
51.78
61.96
70.41
75.54
78.90
86.14
101.25
122.97
143.04
154.16
152.26
138.30
117.58
97.43
84.96
83.00
88.74
93.01
87.34
66.72
31.31
-14.41
-63.59
-109.19
-146.29
-173.34
-194.88
-216.26
-241.47
-272.05
-308.07
-349.26
-394.48
-439.94
-478.11
-502.35
-506.15
-486.38
-446.05
-395.27
-348.21
-316.91
-305.75
-288.32
-243.73
-165.51
-66.58
31.20
110.52
164.64
196.76
215.77
229.51
241.18
248.94
248.88
238.38
217.09
186.09
147.43
103.05
58.80
17.05
-18.95
-43.65
-50.25
-34.16
3.53
55.72
111.50
160.27
192.93
205.90
201.46
185.85
165.94
146.46
129.32
115.04
104.92
101.27
108.05
128.86
163.61
206.35
246.37
272.61
278.81
266.51
243.45
219.23
200.01
185.98
172.79
155.62
133.02
107.86
85.25
69.13
60.01
55.11
50.20
42.13
30.19
16.18
3.01
-6.99
-13.31
-17.41
-21.97
-29.44
-40.98
-55.94
-72.45
-88.48
-102.93
-116.19
-129.91
-146.03
-165.76
-188.98
-214.32
-239.86
-264.25
-287.33
-310.24
-335.01
-363.79
-397.99
-437.73
-481.50
-526.28
-567.94
-601.76
-623.18
-628.68
-616.66
-587.77
-544.77
-491.54
-431.91
-368.79
-304.40
-241.31
-183.19
-134.57
-98.87
-76.10
-61.38
-46.31
-22.95
11.92
54.93
97.71
131.37
150.27
154.17
147.50
136.88
129.07
129.06
138.86
156.43
175.34
186.17
180.09
153.64
111.39
64.98
28.41
12.49
20.95
49.54
88.25
124.55
146.91
147.59
124.29
80.87
26.96
-24.50
-61.59
-77.31
-71.71
-49.76
-17.85
19.18
57.80
95.30
128.99
155.46
172.52
177.20
167.09
144.26
116.58
91.72
72.78
58.14
43.11
24.81
3.75
-18.37
-37.55
-48.44
-48.58
-39.04
-23.36
-6.58
10.03
24.06
35.64
46.69
60.92
79.77
101.78
123.42
139.37
147.88
148.84
143.45
119.77
73.64
9.84
-60.36
-115.80
-156.92
-186.58
-206.61
-221.33
-231.56
-235.44
-232.19
-222.77
-209.41
-195.94
-182.91
-169.98
-156.84
-142.99
-127.13
-108.93
-89.28
-69.58
-52.05
-36.06
-20.33
-4.01
13.26
31.74
50.80
69.21
85.96
100.19
113.30
127.08
142.54
159.66
177.74
195.61
212.46
228.54
245.04
264.60
289.91
322.81
363.84
411.95
463.85
513.95
554.93
579.12
580.99
559.03
516.35
459.78
397.38
335.63
277.63
223.22
170.97
120.72
75.20
39.56
18.74
14.35
22.58
34.66
39.82
29.42
0.38
-43.86
-95.31
-145.24
-187.66
-221.27
-248.92
-275.21
-304.13
-337.70
-376.24
-419.23
-465.65
-513.41
-558.38
-594.00
-612.50
-607.59
-577.10
-524.36
-457.21
-385.31
-316.79
-256.38
-205.14
-161.67
-123.76
-89.33
-56.66
-24.10
10.03
47.25
88.45
133.43
180.61
226.83
268.10
300.58
321.75
331.33
331.26
324.80
315.16
304.42
293.11
280.83
267.24
252.78
238.75
226.67
217.41
210.65
205.04
198.92
191.20
181.89
172.05
163.27
156.84
153.13
151.46
150.48
148.81
145.67
141.15
136.09
131.70
128.93
128.05
128.65
129.77
130.20
128.80
124.49
116.03
101.79
79.98
49.33
9.98
-35.99
-84.89
-132.39
-174.76
-209.53
-235.39
-251.56
-257.19
-251.58
-234.90
-208.91
-177.02
-143.45
-111.95
-84.67
-61.97
-42.99
-26.59
-12.03
0.88
12.06
21.49
29.43
36.38
42.83
48.87
53.81
56.12
53.86
45.49
31.11
13.01
-4.72
-17.60
-22.59
-19.52
-11.31
-2.93
0.48
-4.31
-17.40
-35.66
-53.98
-67.02
-71.08
-65.28
-51.69
-34.43
-18.12
-6.40
-1.15
-2.51
-9.63
-21.23
-35.97
-52.46
-69.12
-84.32
-96.57
-104.73
-108.12
-106.48
-99.91
-88.73
-73.39
-54.21
-31.33
-4.77
25.16
57.27
89.29
118.19
141.30
157.46
167.67
174.65
181.36
189.24
197.18
201.66
198.38
184.37
159.47
126.59
90.46
55.76
25.68
1.39
-17.18
-30.14
-36.77
-35.58
-25.32
-6.42
18.28
43.95
65.19
77.71
79.27
69.76
50.63
24.32
-6.14
-37.35
-65.92
-89.07
-105.27
-114.71
-119.11
-120.89
-122.24
-124.43
-127.78
-131.75
-135.30
-137.01
-135.44
-129.63
-119.81
-107.70
-96.18
-88.35
-86.68
-92.58
-106.27
-126.78
-151.70
-177.10
-197.97
-209.66
-209.70
-199.22
-182.73
-166.31
-155.07
-151.31
-154.24
-161.34
-169.93
-178.36
-186.07
-193.14
-200.04
-207.53
-216.73
-228.70
-243.74
-260.74
-277.25
-290.44
-298.17
-299.63
-295.14
-285.36
-270.45
-250.02
-223.58
-191.36
-154.77
-116.25
-78.61
-44.15
-14.23
10.80
31.22
47.61
60.79
71.83
82.14
93.26
106.41
122.00
139.47
157.46
174.32
188.67
199.66
207.10
211.13
212.10
210.43
206.74
201.89
196.96
192.97
190.47
189.37
188.85
187.77
184.99
179.86
172.29
162.85
152.46
142.11
132.62
124.48
117.77
112.22
107.17
101.75
95.10
86.67
76.58
65.74
55.62
47.83
43.55
43.15
46.07
51.11
56.79
61.86
65.48
67.35
67.63
66.68
64.86
62.39
59.30
55.63
51.59
47.76
44.94
43.83
44.57
46.54
48.58
49.42
48.16
44.59
39.05
32.27
25.06
18.14
12.09
7.34
4.17
2.62
2.37
2.55
1.73
-1.70
-8.99
-20.26
-34.27
-48.65
-60.77
-68.80
-72.45
-72.79
-71.46
-69.69
-67.80
-65.57
-62.79
-59.68
-56.67
-53.91
-50.94
-46.89
-41.23
-34.34
-27.72
-23.03
-21.10
-21.21
-21.45
-19.74
-14.93
-7.19
2.26
11.47
18.86
23.63
25.87
26.54
27.05
29.07
34.04
42.55
52.97
62.42
67.85
67.94
64.22
60.57
61.27
68.93
82.51
95.85
100.92
90.63
61.77
15.78
-42.64
-106.98
-169.31
-220.48
-252.85
-260.67
-243.36
-206.87
-162.61
-124.31
-103.11
-103.35
-110.28
-107.13
-81.80
-36.31
16.16
62.90
98.39
124.39
145.80
166.60
184.86
198.30
203.31
197.06
180.48
157.73
134.12
113.74
97.69
82.45
66.68
47.95
23.14
-8.13
-43.56
-79.63
-113.76
-145.74
-178.26
-214.62
-240.44
-245.87
-229.78
-199.98
-165.68
-132.31
-101.67
-74.49
-51.07
-31.91
-19.32
-13.93
-14.19
-16.64
-17.94
-16.22
-11.39
-4.43
2.55
5.21
0.72
-10.51
-23.80
-31.79
-27.42
-6.77
29.23
74.97
120.83
157.52
178.49
181.08
165.75
135.23
94.12
48.66
5.89
-28.61
-51.61
-63.20
-66.21
-64.66
-62.01
-59.95
-58.79
-57.83
-57.72
-57.13
-55.04
-50.46
-42.59
-31.18
-16.38
0.98
20.01
40.59
61.25
80.65
97.56
110.86
119.48
122.84
120.88
114.16
103.46
89.67
73.37
54.82
34.13
11.47
-12.24
-36.96
-62.39
-87.43
-109.51
-124.46
-127.74
-116.45
-91.27
-57.02
-21.31
8.49
27.87
36.50
37.34
34.51
31.01
27.86
24.80
21.20
17.37
14.31
13.04
13.76
15.68
17.42
17.66
15.93
12.48
8.56
5.36
3.52
2.96
2.98
2.72
