1702355684.00
64.000000
-0.00
-0.00
-0.00
-0.00
-0.00
-0.00
-0.00
-0.00
-0.00
-0.00
0.00
0.01
0.01
-0.00
-0.03
-0.05
-0.05
0.00
0.13
0.36
0.66
1.01
1.37
1.72
2.06
2.40
2.79
3.24
3.80
4.43
5.08
5.70
6.27
6.80
7.36
8.02
8.83
9.90
11.14
12.44
13.69
14.84
15.95
17.18
18.72
20.71
23.33
26.38
29.57
32.63
35.44
38.10
40.97
44.48
48.94
54.70
61.38
68.46
75.38
81.87
88.04
94.45
101.79
110.56
121.24
133.27
145.83
158.12
169.69
180.74
191.97
204.72
217.55
232.56
250.17
270.43
292.27
313.07
328.81
335.02
328.27
307.41
274.40
232.72
186.59
139.44
93.34
49.07
6.79
-33.37
-71.16
-106.04
-138.04
-167.48
-194.61
-219.39
-241.29
-259.78
-274.48
-285.69
-294.24
-301.89
-310.78
-322.85
-339.05
-358.20
-377.17
-391.42
-396.41
-389.19
-369.74
-340.87
-307.03
-272.59
-240.45
-211.59
-185.59
-161.63
-139.29
-118.78
-100.51
-84.61
-70.68
-57.93
-45.66
-33.59
-21.93
-11.29
-2.26
4.86
10.27
14.58
18.50
22.56
26.89
31.18
34.92
37.62
39.11
39.60
39.54
39.45
39.65
40.14
40.66
40.88
40.53
39.57
38.16
36.58
35.08
33.82
32.82
31.98
31.16
30.20
29.01
27.55
25.89
24.12
22.39
20.78
19.36
18.16
17.19
16.51
16.15
16.11
16.23
16.26
15.95
15.14
13.86
12.32
10.79
9.46
8.41
7.68
7.34
7.51
8.33
9.76
11.48
12.96
13.67
13.30
11.96
10.11
8.32
6.98
6.18
5.71
5.31
4.78
4.10
3.38
2.77
2.36
2.17
2.14
2.23
2.36
2.47
2.49
2.38
2.11
1.73
1.29
0.86
0.45
0.09
-0.26
-0.61
-0.98
-1.44
-2.09
-3.04
-4.34
-5.96
-7.78
-9.61
-11.28
-12.60
-13.47
-13.84
-13.80
-13.57
-13.47
-13.80
-14.68
-16.02
-17.48
-18.58
-18.92
-18.31
-16.82
-14.73
-12.43
-10.25
-8.45
-7.13
-6.28
-5.80
-5.57
-5.46
-5.37
-5.26
-5.10
-4.90
-4.63
-4.24
-3.67
-2.88
-1.86
-0.70
0.48
1.55
2.41
3.07
3.57
4.00
4.41
4.79
5.07
5.17
5.08
4.81
4.49
4.23
4.13
4.23
4.51
4.90
5.34
5.81
6.28
6.76
7.25
7.76
8.29
8.76
9.09
9.18
8.99
8.57
8.10
7.81
7.89
8.46
9.49
10.87
12.33
13.56
14.24
14.12
13.14
11.48
9.50
7.61
6.09
5.03
4.35
3.93
3.72
3.75
4.09
4.66
5.24
5.57
5.39
4.67
3.55
2.31
1.25
0.56
0.29
0.37
0.62
0.82
0.81
0.57
0.25
0.11
0.40
1.22
2.41
3.58
4.31
4.35
3.75
2.88
2.21
2.07
2.46
3.04
3.29
2.90
1.93
0.86
0.37
0.93
2.48
4.40
5.68
5.38
3.05
-1.11
-6.31
-11.43
-15.25
-16.73
-15.21
-10.60
-3.55
4.56
11.88
16.72
18.16
16.55
13.32
10.39
9.37
10.91
14.56
19.04
22.68
24.01
22.20
17.31
10.32
2.89
-3.19
-6.67
-7.34
-6.16
-4.80
-4.93
-7.45
-12.24
-18.33
-24.41
-29.38
-32.61
-33.86
-33.22
-30.86
-27.11
-22.46
-17.57
-13.32
-10.51
-9.65
-10.65
-12.86
-15.31
-17.12
-17.92
-17.90
-17.56
-17.33
-17.24
-16.82
-15.28
-11.72
-5.38
4.04
16.07
29.11
40.53
47.28
47.15
40.00
28.23
16.11
7.93
6.13
10.33
17.86
25.34
30.58
33.33
34.86
36.73
39.61
43.09
46.41
49.33
52.39
56.07
59.64
60.78
56.50
45.01
27.40
7.77
-8.56
-17.75
-19.27
-15.80
-11.17
-7.77
-5.35
-1.76
4.88
14.31
23.83
29.84
30.07
24.84
16.69
8.73
2.92
-0.69
-3.38
-6.33
-9.50
-11.57
-10.74
-5.97
2.18
11.83
20.53
26.35
28.29
26.15
20.10
10.36
-2.67
-18.06
-33.88
-47.43
-55.90
-57.49
-52.25
-42.24
-30.75
-21.02
-15.21
-13.88
-16.39
-21.57
-28.40
-36.24
-44.58
-52.55
-58.81
-61.77
-60.18
-54.03
-44.67
-34.58
-26.62
-23.20
-25.61
-33.49
-44.68
-55.38
-61.19
-58.58
-46.40
-26.76
-4.81
12.98
21.24
17.99
5.57
-10.29
-22.92
-27.43
-22.56
-10.59
4.19
17.71
27.70
33.90
37.21
38.52
37.97
35.22
30.46
25.09
21.54
22.12
27.52
36.14
44.57
49.14
47.58
40.21
29.67
19.73
13.69
13.22
17.88
25.71
34.00
40.22
42.59
40.29
33.57
23.64
12.39
1.87
-6.32
-11.63
-14.64
-16.82
-19.77
-24.57
-31.36
-39.42
-47.34
-53.57
-56.83
-56.56
-53.22
-48.31
-43.81
-41.20
-40.53
-40.15
-37.36
-29.68
-16.06
2.62
23.96
45.06
63.56
78.11
88.26
94.10
95.92
94.09
89.16
81.81
72.72
62.38
50.95
38.42
24.79
10.32
-4.42
-18.57
-31.16
-41.35
-48.54
-52.57
-53.69
-52.43
-49.58
-46.04
-42.59
-39.63
-37.06
-34.30
-30.68
-26.00
-20.84
-16.45
-13.91
-13.39
-13.85
-13.58
-11.20
-6.65
-1.32
2.66
3.56
0.90
-4.58
-11.29
-17.54
-21.67
-22.07
-17.17
-6.05
10.69
30.42
48.73
60.96
63.97
57.44
43.87
27.40
12.21
1.36
-3.77
-3.19
1.97
9.94
18.50
25.43
29.05
28.60
24.28
16.89
7.38
-3.40
-14.72
-25.72
-35.38
-42.72
-47.29
-49.48
-50.52
-51.94
-54.97
-59.92
-66.04
-71.84
-75.77
-76.96
-75.67
-73.24
-71.54
-72.20
-75.91
-82.27
-90.09
-97.99
-104.98
-110.57
-114.68
-117.39
-118.90
-119.57
-119.99
-120.85
-122.66
-125.58
-129.36
-133.54
-137.81
-142.24
-147.38
-153.99
-162.54
-172.67
-182.86
-190.69
-193.40
-188.90
-176.37
-156.58
-131.41
-103.02
-73.03
-42.16
-10.26
23.15
58.21
94.22
129.57
162.16
190.25
213.11
231.27
246.07
258.76
269.42
276.88
279.33
275.54
265.87
252.38
237.77
224.03
211.50
199.11
185.47
170.21
154.52
140.64
130.64
125.19
123.22
122.44
120.60
116.62
111.08
105.73
102.55
102.85
106.76
113.38
121.37
129.54
137.25
144.57
152.09
160.72
171.49
185.24
202.25
221.86
242.17
260.28
272.99
277.66
273.15
260.04
240.24
216.19
190.02
163.11
136.13
109.44
83.32
58.01
33.42
8.82
-17.13
-46.21
-79.98
-119.06
-162.33
-206.71
-247.49
-279.60
-299.22
-305.17
-299.28
-285.64
-268.84
-252.34
-237.52
-224.05
-210.90
-197.43
-183.97
-171.46
-160.83
-152.43
-145.93
-140.53
-135.28
-129.25
-121.66
-111.94
-99.86
-85.59
-69.67
-52.94
-36.39
-21.13
-8.30
1.20
7.15
10.35
12.50
15.58
20.79
27.89
35.03
39.54
39.18
33.07
22.08
8.24
-6.02
-18.64
-28.19
-33.91
-35.63
-33.77
-29.35
-23.88
-18.93
-15.68
-14.57
-15.21
-16.65
-17.84
-18.12
-17.51
-16.65
-16.45
-17.69
-20.61
-24.93
-29.98
-35.03
-39.63
-43.72
-47.51
-51.31
-55.25
-59.15
-62.59
-65.17
-66.74
-67.56
-68.07
-68.64
-69.38
-70.18
-70.91
-71.54
-71.96
-71.77
-70.24
-66.62
-60.76
-53.53
-46.49
-40.97
-37.07
-33.59
-29.16
-23.74
-19.18
-18.43
-23.22
-32.10
-40.14
-40.61
-27.56
2.03
47.60
105.48
169.67
232.51
285.38
319.74
328.98
310.55
267.23
206.68
139.37
75.53
22.81
-14.83
-36.96
-45.68
-44.37
-36.66
-25.83
-14.48
-4.56
2.48
5.51
3.76
-2.61
-12.35
-23.19
-32.46
-38.11
-39.49
-37.55
-34.55
-33.14
-35.40
-42.00
-51.75
-61.59
-67.17
-63.65
-46.70
-13.62
35.67
97.80
165.81
230.21
281.04
310.47
315.01
296.01
258.52
208.95
153.03
94.93
37.97
-14.33
-57.73
-88.20
-103.58
-105.00
-96.67
-84.29
-72.73
-64.42
-59.26
-55.71
-52.32
-48.77
-45.78
-44.28
-44.50
-45.59
-45.97
-44.02
-38.81
-30.52
-20.31
-9.80
-0.62
5.88
8.75
7.49
2.20
-6.18
-15.78
-24.24
-29.47
-30.50
-28.05
-24.22
-21.54
-21.81
-25.36
-31.09
-37.19
-42.11
-45.17
-46.61
-47.08
-47.12
-46.83
-45.99
-44.34
-41.95
-39.27
-37.03
-35.84
-35.89
-36.76
-37.55
-37.25
-35.14
-31.18
-26.06
-20.94
-16.96
-14.85
-14.72
-16.09
-18.16
-20.15
-21.42
-21.72
-21.01
-19.54
-17.66
-15.80
-14.34
-13.66
-14.17
-16.19
-19.78
-24.44
-28.97
-31.72
-31.16
-26.45
-17.79
-6.25
6.72
19.84
32.33
43.84
54.24
63.39
70.97
76.70
80.51
82.64
83.52
83.60
82.99
81.44
78.44
73.35
65.76
55.72
43.76
30.79
17.99
6.44
-3.03
-9.97
-14.28
-16.24
-16.45
-15.78
-15.25
-15.78
-17.92
-21.69
-26.58
-31.73
-36.21
-39.39
-41.03
-41.37
-40.80
-39.69
-38.24
-36.56
-34.81
-33.28
-32.31
-32.12
-32.59
-33.32
-33.75
-33.42
-32.19
-30.33
-28.44
-27.13
-26.77
-27.28
-28.23
-29.08
-29.41
-29.03
-27.99
-26.41
-24.47
-22.37
-20.42
-18.99
-18.36
-18.48
-18.75
-18.21
-15.87
-11.23
-4.64
2.89
10.19
16.43
21.50
25.71
29.32
32.14
33.42
32.32
28.49
22.60
16.15
10.82
7.54
5.94
4.42
0.89
-6.28
-17.60
-32.39
-49.38
-67.41
-85.81
-104.52
-123.51
-142.39
-160.15
-175.39
-186.83
-193.78
-196.27
-194.76
-189.81
-182.11
-172.67
-163.16
-155.74
-152.30
-153.43
-157.77
-162.12
-162.55
-155.89
-140.79
-117.94
-89.39
-57.52
-24.22
9.33
42.46
74.86
106.60
138.49
172.35
211.19
258.43
316.33
384.21
457.18
526.47
581.72
614.41
621.04
604.28
571.50
531.46
490.74
451.97
414.28
375.47
334.30
291.47
249.03
208.83
171.24
134.98
97.92
58.19
14.83
-31.96
-81.13
-130.94
-178.92
-221.83
-256.04
-278.50
-287.84
-285.08
-273.42
-257.07
-239.86
-224.10
-210.43
-198.37
-187.19
-176.40
-165.84
-155.36
-144.57
-132.87
-119.74
-105.14
-89.59
-74.19
-60.25
-48.90
-40.60
-35.04
-31.26
-28.08
-24.58
-20.48
-16.12
-12.19
-9.29
-7.66
-7.08
-6.94
-6.42
-4.71
-1.16
4.44
11.75
19.93
27.86
34.44
38.82
40.38
38.69
33.54
25.10
14.17
2.32
-8.43
-16.23
-20.17
-20.65
-19.16
-17.51
-17.00
-17.99
-19.97
-22.24
-24.32
-26.21
-28.08
-29.95
-31.50
-32.15
-31.49
-29.57
-26.93
-24.38
-22.60
-21.83
-21.87
-22.27
-22.63
-22.74
-22.56
-22.20
-21.74
-21.15
-20.34
-19.19
-17.62
-15.65
-13.47
-11.40
-9.80
-9.04
-9.27
-10.35
-11.81
-12.95
-13.14
-12.08
-9.99
-7.46
-5.14
-3.33
-1.83
-0.08
2.52
6.16
10.54
15.02
18.97
22.05
24.19
25.46
25.90
25.54
24.55
23.33
22.38
22.05
22.27
22.56
22.31
21.09
18.93
16.17
13.25
10.46
7.86
5.44
3.26
1.53
0.47
0.12
0.29
0.60
0.72
0.51
0.18
0.09
0.64
1.98
3.97
6.06
7.50
7.51
5.60
1.82
-3.12
-8.10
-11.92
-13.71
-13.24
-10.88
-7.47
-4.02
-1.51
-0.61
-1.50
-3.71
-6.15
-7.44
-6.49
-3.01
2.20
7.54
11.30
12.38
10.73
7.22
3.13
-0.44
-2.87
-4.07
-4.23
-3.66
-2.64
-1.54
-0.76
-0.68
-1.50
-3.16
-5.33
-7.56
-9.45
-10.71
-11.27
-11.25
-10.89
-10.48
-10.22
-10.17
-10.23
-10.15
-9.77
-9.10
-8.37
-7.94
-8.10
-8.93
-10.26
-11.83
-13.39
-14.86
-16.28
-17.80
-19.45
-21.12
-22.45
-22.97
-22.26
-20.17
-16.91
-12.92
-8.74
-4.80
-1.27
1.96
5.21
8.86
13.15
18.03
23.15
27.92
31.76
34.33
35.60
35.93
35.92
36.18
37.13
38.81
40.81
42.26
42.05
39.16
33.08
24.24
14.04
4.45
-2.76
-6.67
-7.57
-6.65
-5.37
-4.84
-5.49
-7.17
-9.45
-11.93
-14.34
-16.52
-18.29
-19.43
-19.75
-19.24
-18.15
-16.99
-16.45
-17.12
-19.31
-22.86
-27.24
-31.71
-35.61
-38.68
-41.12
-43.50
-46.53
-50.75
-56.23
-62.50
-68.57
-73.25
-75.62
-75.52
-73.70
-71.70
-71.17
-73.22
-77.96
-84.59
-91.93
-99.01
-105.48
-111.39
-116.91
-121.96
-126.12
-129.00
-130.57
-131.61
-133.44
-137.35
-143.60
-150.81
-155.91
-155.12
-145.36
-125.61
-97.51
-64.51
-30.50
2.01
32.72
63.34
96.56
135.09
181.17
236.24
300.41
371.45
444.04
510.03
560.31
587.78
589.85
569.26
532.70
487.92
440.98
394.90
350.17
306.19
262.64
219.85
178.25
137.58
96.46
52.84
5.12
-46.69
-100.35
-151.32
-194.15
-224.26
-239.68
-241.82
-234.93
-224.44
-215.04
-209.40
-208.05
-210.12
-214.28
-219.22
-223.57
-225.56
-222.98
-213.63
-196.25
-171.32
-141.25
-109.67
-80.27
-55.50
-35.96
-20.61
-7.69
4.08
14.60
22.14
24.09
18.22
4.08
-16.37
-39.16
-59.71
-74.50
-82.29
-84.24
-82.94
-80.90
-79.31
-77.83
-75.25
-70.62
-63.89
-55.89
-47.72
-40.07
-33.07
-26.56
-20.47
-14.97
-10.30
-6.47
-3.31
-0.65
1.23
1.57
-0.64
-5.96
-14.14
-24.01
-34.03
-42.82
-49.58
-54.23
-57.32
-59.94
-63.36
-68.63
-75.87
-83.62
-88.87
-87.78
-76.90
-54.27
-20.08
23.39
72.31
122.04
167.96
206.11
233.98
250.73
256.97
253.90
242.21
221.88
192.84
156.35
116.04
77.52
46.51
26.52
17.53
16.29
18.32
20.19
20.86
21.41
23.89
29.58
38.25
48.28
57.69
65.30
71.43
77.77
86.63
99.75
117.40
138.19
159.49
178.31
192.11
199.19
198.82
190.99
176.17
155.12
128.61
97.03
60.09
17.13
-32.00
-85.67
-139.71
-187.63
-222.15
-237.65
-232.45
-209.83
-177.14
-143.30
-115.81
-98.38
-90.36
-88.03
-87.03
-84.53
-80.14
-75.39
-72.30
-72.09
-74.93
-80.29
-87.18
-93.92
-97.72
-95.08
-83.49
-63.45
-39.40
-18.36
-6.77
-7.16
-17.01
-30.38
-41.46
-47.47
-49.22
-49.23
-49.27
-49.06
-47.04
-42.40
-36.35
-31.74
-31.33
-36.00
-44.04
-52.19
-57.08
-56.93
-52.22
-45.26
-39.12
-36.06
-36.27
-37.45
-35.63
-26.99
-9.85
14.28
41.24
66.14
85.38
97.92
105.07
109.17
112.15
114.71
116.38
116.32
113.99
109.62
104.18
98.98
95.17
93.51
94.19
96.81
100.23
102.38
100.53
92.00
75.33
51.32
23.20
-4.27
-26.49
-40.77
-47.16
-47.82
-45.65
-42.75
-39.93
-37.02
-33.86
-30.82
-28.70
-28.11
-28.95
-30.42
-31.50
-31.52
-30.57
-29.36
-28.91
-29.92
-32.49
-36.07
-39.62
-42.09
-42.75
-41.50
-38.81
-35.52
-32.46
-30.22
-28.95
-28.38
-28.01
-27.27
-25.79
-23.49
-20.61
-17.54
-14.75
-12.58
-11.15
-10.24
-9.34
-7.79
-5.07
-1.06
3.89
9.11
13.83
17.46
19.71
20.61
20.31
19.06
17.14
14.86
12.62
10.79
9.61
9.01
8.73
8.42
7.81
6.83
5.61
4.31
3.13
2.16
1.45
1.02
0.85
0.89
1.02
1.08
0.92
0.49
-0.14
-0.76
-1.15
-1.12
-0.68
0.04
0.79
1.38
1.79
2.13
2.64
3.52
4.82
6.38
7.87
8.91
9.21
8.69
7.58
6.28
5.28
4.93
5.32
6.25
7.38
8.33
8.88
8.98
8.73
8.28
7.77
7.27
6.81
6.41
6.12
6.01
6.13
6.49
7.01
7.54
7.84
7.76
7.25
6.48
5.69
5.07
4.68
4.41
4.06
3.54
2.89
2.28
1.83
1.50
1.11
0.44
-0.59
-1.88
-3.20
-4.35
-5.31
-6.23
-7.28
-8.55
-9.86
-10.95
-11.53
-11.53
-11.09
-10.44
-9.80
-9.27
-8.78
-8.29
-7.83
-7.52
-7.51
-7.83
-8.37
-8.89
-9.18
-9.16
-8.95
-8.72
-8.61
-8.62
-8.57
-8.30
-7.77
-7.10
-6.53
-6.28
-6.39
-6.70
-6.93
-6.83
-6.30
-5.44
-4.45
-3.52
-2.74
-2.14
-1.67
-1.31
-1.05
-0.91
-0.87
-0.90
-0.97
-1.07
-1.20
-1.35
-1.51
-1.65
-1.74
-1.78
-1.79
-1.78
-1.69
-1.46
-1.04
-0.47
0.17
0.77
1.24
1.55
1.72
1.78
1.72
1.53
1.22
0.87
0.60
0.53
0.72
1.10
1.56
1.94
2.15
2.16
2.02
1.82
1.64
1.54
1.53
1.56
1.59
1.58
1.51
1.41
1.30
1.20
1.11
0.98
0.77
0.44
0.05
-0.30
-0.51
-0.49
-0.27
0.05
0.32
0.43
0.34
0.08
-0.28
-0.67
-1.06
-1.41
-1.65
-1.72
-1.55
-1.17
-0.68
-0.21
0.09
0.20
0.15
0.05
-0.04
-0.09
-0.13
-0.18
-0.26
-0.32
-0.33
-0.29
-0.20
-0.12
-0.06
-0.04
-0.03
-0.05
-0.12
-0.24
-0.38
-0.45
-0.34
0.00
0.53
1.07
1.44
1.53
1.37
1.14
1.00
1.04
1.18
1.27
1.15
0.79
0.30
-0.15
-0.40
-0.39
-0.14
0.20
0.51
0.66
0.56
0.22
-0.34
-0.99
-1.62
-2.09
-2.35
-2.37
-2.22
-1.97
-1.71
-1.48
-1.28
-1.08
-0.86
-0.62
-0.39
-0.20
-0.07
-0.01
0.00
-0.01
-0.04
-0.07
-0.12
-0.16
-0.18
-0.18
-0.15
-0.11
-0.07
-0.04
-0.01
0.04
0.13
0.27
0.48
0.75
1.03
1.26
1.34
1.23
0.94
0.59
0.29
0.14
0.14
0.24
0.37
0.47
0.55
0.60
0.59
0.50
0.31
0.05
-0.19
-0.26
-0.12
0.20
0.57
0.78
0.71
0.34
-0.19
-0.66
-0.92
-0.90
-0.68
-0.41
-0.24
-0.19
-0.22
-0.24
-0.18
-0.07
0.05
0.09
0.03
-0.08
-0.15
-0.14
-0.05
0.04
0.05
-0.06
-0.28
-0.51
-0.66
-0.66
-0.55
-0.41
-0.32
-0.35
-0.48
-0.65
-0.75
-0.75
-0.64
-0.44
-0.23
-0.05
0.10
0.23
0.40
0.62
0.87
1.07
1.15
1.08
0.88
0.62
0.41
0.31
0.34
0.44
0.55
0.61
0.59
0.52
0.40
0.24
0.04
-0.16
-0.33
-0.42
-0.40
-0.28
-0.16
-0.11
-0.22
-0.45
-0.69
-0.81
-0.74
-0.50
-0.24
-0.06
-0.04
-0.11
-0.13
0.00
0.31
0.72
1.06
1.20
1.08
0.75
0.34
-0.01
-0.15
-0.05
0.25
0.62
0.91
1.01
0.87
0.56
0.17
-0.21
-0.53
-0.78
-0.97
-1.05
-1.00
-0.76
-0.38
0.07
0.46
0.66
0.62
0.37
-0.00
-0.35
-0.58
-0.61
-0.49
-0.29
-0.12
-0.06
-0.12
-0.23
-0.30
-0.28
-0.17
-0.04
0.03
0.01
-0.06
-0.12
-0.11
-0.07
-0.10
-0.30
-0.69
-1.14
-1.45
-1.42
-1.00
-0.34
0.30
0.68
0.70
0.47
0.19
0.04
0.02
0.02
-0.13
-0.50
-1.04
-1.57
-1.92
-2.01
-1.87
-1.61
-1.34
-1.10
-0.88
-0.64
-0.38
-0.08
0.24
0.56
0.83
1.03
1.14
1.15
1.08
0.97
0.85
0.71
0.55
0.39
0.28
0.28
0.45
0.77
1.19
1.61
1.91
2.04
1.97
1.68
1.22
0.64
0.01
-0.54
-0.91
-1.05
-0.96
-0.71
-0.39
-0.08
0.15
0.27
0.27
0.14
-0.08
-0.31
-0.45
-0.42
-0.22
0.09
0.36
0.48
0.40
0.18
-0.07
-0.23
-0.27
-0.20
-0.10
-0.00
0.09
0.19
0.31
0.42
0.46
0.37
0.16
-0.12
-0.36
-0.47
-0.42
-0.27
-0.11
-0.06
-0.13
-0.30
-0.43
-0.41
-0.20
0.13
0.44
0.60
0.56
0.36
0.18
0.13
0.27
0.53
0.79
0.94
0.93
0.80
0.62
0.46
0.35
0.34
0.43
0.63
0.92
1.21
1.42
1.46
1.31
1.02
0.67
0.32
0.01
-0.24
-0.43
-0.50
-0.43
-0.19
0.14
0.45
0.58
0.47
0.14
-0.30
-0.68
-0.89
-0.88
-0.70
-0.47
-0.33
-0.35
-0.55
-0.85
-1.12
-1.25
-1.17
-0.94
-0.67
-0.47
-0.42
-0.50
-0.62
-0.71
-0.74
-0.75
-0.80
-0.91
-1.06
-1.18
-1.19
-1.04
-0.76
-0.40
-0.02
0.30
0.50
0.55
0.45
0.20
-0.14
-0.48
-0.75
-0.87
-0.80
-0.53
-0.10
0.44
0.99
1.47
1.78
1.85
1.65
1.21
0.63
0.06
-0.33
-0.44
-0.21
0.27
0.83
1.27
1.48
1.42
1.16
0.83
0.54
0.34
0.19
0.01
-0.27
-0.61
-0.93
-1.07
-0.92
-0.50
0.12
0.73
1.16
1.28
1.08
0.63
0.10
-0.36
-0.64
-0.67
-0.49
-0.14
0.27
0.65
0.89
0.93
0.75
0.38
-0.09
-0.59
-1.03
-1.35
-1.50
-1.46
-1.25
-0.94
-0.64
-0.46
-0.45
-0.59
-0.76
-0.82
-0.65
-0.24
0.29
0.75
0.98
0.93
0.65
0.30
0.03
-0.08
-0.04
0.09
0.26
0.40
0.49
0.51
0.44
0.26
-0.04
-0.40
-0.71
-0.81
-0.63
-0.23
0.25
0.58
0.62
0.37
-0.03
-0.36
-0.47
-0.36
-0.18
-0.11
-0.24
-0.58
-1.00
-1.34
-1.47
-1.35
-1.02
-0.56
-0.06
0.44
0.91
1.35
1.73
2.00
2.10
1.97
1.64
1.20
0.80
0.59
0.63
0.87
1.14
1.28
1.19
0.87
0.44
0.01
-0.31
-0.48
-0.53
-0.49
-0.42
-0.35
-0.33
-0.40
-0.55
-0.76
-0.97
-1.12
-1.17
-1.11
-0.95
-0.74
-0.56
-0.47
-0.51
-0.67
-0.89
-1.04
-1.02
-0.80
-0.43
-0.03
0.28
0.47
0.54
0.57
0.56
0.53
0.44
0.28
0.09
-0.04
-0.06
0.05
0.22
0.33
0.32
0.15
-0.10
-0.31
-0.36
-0.20
0.12
0.49
0.71
0.69
0.40
-0.06
-0.53
-0.84
-0.93
-0.80
-0.53
-0.23
0.02
0.18
0.29
0.38
0.46
0.53
0.51
0.36
0.07
-0.26
-0.49
-0.48
-0.21
0.21
0.58
0.67
0.42
-0.06
-0.52
-0.72
-0.54
-0.06
0.48
0.82
0.84
0.55
0.13
-0.23
-0.40
-0.34
-0.12
0.13
0.32
0.38
0.29
0.11
-0.09
-0.24
-0.30
-0.25
-0.12
0.04
0.18
0.29
0.38
0.45
0.49
0.48
0.42
0.31
0.21
0.16
0.16
0.18
0.16
0.07
-0.07
-0.21
-0.31
-0.40
-0.49
-0.58
-0.58
-0.42
-0.06
0.44
0.91
1.17
1.14
0.86
0.45
0.06
-0.26
-0.52
-0.76
-1.00
-1.20
-1.29
-1.23
-1.03
-0.73
-0.40
-0.05
0.32
0.67
0.93
1.01
0.85
0.48
0.02
-0.36
-0.51
-0.37
-0.03
0.40
0.76
0.99
1.08
1.05
0.93
0.71
0.41
0.06
-0.23
-0.38
-0.37
-0.26
-0.19
-0.27
-0.48
-0.70
-0.76
-0.56
-0.15
0.29
0.56
0.54
0.29
-0.05
-0.33
-0.47
-0.47
-0.42
-0.38
-0.36
-0.34
-0.30
-0.24
-0.14
-0.01
0.19
0.46
0.76
0.98
0.98
0.71
0.18
-0.45
-1.00
-1.32
-1.34
-1.10
-0.69
-0.24
0.16
0.40
0.48
0.40
0.19
-0.05
-0.24
-0.30
-0.21
0.01
0.29
0.54
0.71
0.78
0.76
0.68
0.54
0.35
0.09
-0.20
-0.45
-0.57
-0.50
-0.26
0.03
0.23
0.25
0.08
-0.18
-0.41
-0.56
-0.63
-0.65
-0.67
-0.62
-0.49
-0.23
0.10
0.42
0.67
0.85
1.02
1.24
1.49
1.67
1.63
1.25
0.58
-0.23
-0.94
-1.36
-1.41
-1.18
-0.85
-0.61
-0.59
-0.83
-1.21
-1.61
-1.85
-1.86
-1.63
-1.29
-0.98
-0.80
-0.76
-0.76
-0.67
-0.40
0.04
0.54
0.94
1.16
1.19
1.13
1.09
1.15
1.28
1.44
1.54
1.54
1.47
1.37
1.27
1.21
1.15
1.08
0.96
0.77
0.55
0.33
0.18
0.11
0.11
0.07
-0.06
-0.30
-0.59
-0.78
-0.76
-0.52
-0.18
0.10
0.19
0.08
-0.13
-0.28
-0.31
-0.23
-0.12
-0.06
-0.06
-0.07
-0.02
0.07
0.16
0.16
0.02
-0.21
-0.45
-0.58
-0.53
-0.33
-0.06
0.16
0.25
0.20
0.07
-0.06
-0.09
-0.05
0.01
-0.04
-0.26
-0.61
-0.95
-1.09
-0.95
-0.57
-0.17
0.05
-0.01
-0.28
-0.56
-0.67
-0.53
-0.23
0.06
0.18
0.08
-0.15
-0.38
-0.50
-0.46
-0.26
0.03
0.33
0.53
0.55
0.39
0.10
-0.17
-0.32
-0.29
-0.16
-0.04
-0.02
-0.07
-0.07
0.07
0.34
0.63
0.79
0.75
0.55
0.33
0.25
0.37
0.64
0.93
1.09
1.05
0.85
0.56
0.31
0.18
0.17
0.26
0.36
0.39
0.34
0.23
0.11
0.04
0.02
0.02
-0.02
-0.09
-0.12
-0.06
0.11
0.31
0.41
0.29
-0.07
-0.57
-1.02
-1.26
-1.24
-1.01
-0.71
-0.47
-0.38
-0.44
-0.60
-0.77
-0.89
-0.87
-0.70
-0.42
-0.11
0.10
0.13
-0.02
-0.26
-0.49
-0.61
-0.57
-0.41
-0.18
0.04
0.21
0.31
0.35
0.35
0.37
0.43
0.53
0.65
0.72
0.71
0.59
0.43
0.29
0.27
0.39
0.58
0.72
0.70
0.47
0.09
-0.31
-0.57
-0.65
-0.59
-0.53
-0.58
-0.77
-0.98
-1.07
-0.91
-0.51
-0.03
0.37
0.54
0.48
0.28
0.07
-0.03
0.03
0.23
0.53
0.85
1.12
1.29
1.31
1.20
0.98
0.76
0.63
0.67
0.88
1.16
1.39
1.44
1.28
0.98
0.69
0.56
0.66
0.95
1.26
1.39
1.21
0.72
0.09
-0.45
-0.62
-0.24
0.69
1.92
2.99
3.34
2.56
0.57
-2.23
-5.08
-7.08
-7.61
-6.56
-4.42
-2.03
-0.25
0.40
-0.18
-1.69
-3.69
-5.71
-7.33
-8.27
-8.41
-7.86
-6.93
-6.08
-5.62
-5.62
-5.82
-5.79
-5.27
-4.23
-2.92
-1.67
-0.64
0.25
1.21
2.39
3.71
4.89
5.64
5.79
5.44
4.82
4.21
3.74
3.44
3.28
3.21
3.23
3.30
3.34
3.21
2.82
2.20
1.56
1.17
1.19
1.52
1.88
1.97
1.72
1.29
0.93
0.77
0.65
0.16
-1.02
-2.99
-5.48
-8.07
-10.38
-12.29
-13.87
-15.32
-16.74
-18.10
-19.30
-20.22
-20.86
-21.22
-21.35
-21.23
-20.84
-20.16
-19.25
-18.27
-17.42
-16.87
-16.73
-16.91
-17.24
-17.50
-17.53
-17.25
-16.57
-15.32
-13.18
-9.84
-5.18
0.54
6.76
12.81
18.22
22.77
26.50
29.43
31.40
32.18
31.62
29.93
27.74
25.84
24.87
24.97
25.75
26.51
26.61
25.74
24.03
21.89
19.80
18.08
16.83
15.96
15.30
14.67
13.91
12.89
11.54
9.82
7.80
5.69
3.76
2.29
1.44
1.20
1.37
1.66
1.83
1.77
1.57
1.38
1.36
1.56
1.90
2.23
2.42
2.46
2.41
2.39
2.54
2.90
3.42
3.97
4.38
4.50
4.24
3.60
2.66
1.51
0.25
-0.99
-2.05
-2.74
-2.90
-2.51
-1.75
-0.97
-0.58
-0.82
-1.66
-2.81
-3.86
-4.46
-4.51
-4.13
-3.55
-2.96
-2.45
-1.93
-1.29
-0.48
0.41
1.21
1.73
1.90
1.78
1.51
1.28
1.13
1.00
0.77
0.28
-0.48
-1.46
-2.54
-3.56
-4.46
-5.21
-5.82
-6.26
-6.51
-6.52
-6.27
-5.82
-5.28
-4.77
-4.40
-4.21
-4.15
-4.13
-4.02
-3.75
-3.34
-2.89
-2.58
-2.51
-2.71
-3.06
-3.36
-3.39
-3.08
-2.51
-1.88
-1.42
-1.29
-1.47
-1.78
-2.00
-1.96
-1.61
-1.07
-0.55
-0.22
-0.14
-0.29
-0.55
-0.83
-1.12
-1.44
-1.84
-2.30
-2.72
-2.97
-2.94
-2.61
-2.07
-1.46
-0.97
-0.70
-0.69
-0.87
-1.14
-1.38
-1.50
-1.44
-1.19
-0.79
-0.30
0.16
0.47
0.58
0.50
0.37
0.36
0.59
1.04
1.54
1.83
1.70
1.16
0.43
-0.16
-0.34
-0.04
0.57
1.16
1.47
1.39
1.04
0.62
0.34
0.27
0.31
0.30
0.12
-0.22
-0.57
-0.76
-0.71
-0.43
-0.06
0.20
0.25
0.07
-0.27
-0.61
-0.82
-0.84
-0.69
-0.47
-0.27
-0.19
-0.24
-0.42
-0.66
-0.90
-1.02
-0.96
-0.69
-0.26
0.21
0.56
0.67
0.50
0.13
-0.28
-0.57
-0.66
-0.58
-0.44
-0.38
-0.45
-0.58
-0.64
-0.49
-0.09
0.48
1.01
1.30
1.23
0.85
0.35
-0.01
-0.05
0.25
0.75
1.17
1.31
1.08
0.55
-0.08
-0.58
-0.79
-0.67
-0.29
0.19
0.62
0.89
0.94
0.75
0.37
-0.14
-0.73
-1.30
-1.74
-1.96
-1.89
-1.56
-1.09
-0.65
-0.38
-0.33
-0.45
-0.60
-0.65
-0.54
-0.26
0.12
0.52
0.84
1.00
0.96
0.71
0.30
-0.17
-0.61
-0.89
-0.97
-0.88
-0.67
-0.41
-0.19
-0.01
0.06
0.02
-0.13
-0.36
-0.57
-0.64
-0.51
-0.16
0.33
0.82
1.18
1.30
1.17
0.88
0.52
0.21
0.04
0.04
0.16
0.33
0.44
0.40
0.18
-0.20
-0.61
-0.91
-0.98
-0.79
-0.43
-0.03
0.26
0.35
0.26
0.10
-0.04
-0.09
-0.03
0.12
0.31
0.53
0.75
0.96
1.09
1.09
0.95
0.69
0.39
0.11
-0.09
-0.24
-0.35
-0.45
-0.52
-0.54
-0.46
-0.27
-0.02
0.23
0.37
0.37
0.20
-0.06
-0.34
-0.54
-0.64
-0.62
-0.52
-0.40
-0.26
-0.11
0.06
0.26
0.43
0.52
0.50
0.37
0.17
-0.02
-0.17
-0.27
-0.36
-0.47
-0.60
-0.71
-0.74
-0.66
-0.48
-0.24
-0.02
0.16
0.29
0.36
0.37
0.28
0.09
-0.17
-0.39
-0.46
-0.30
0.06
0.50
0.87
1.04
1.00
0.78
0.51
0.28
0.12
0.06
0.07
0.10
0.17
0.26
0.36
0.47
0.57
0.66
0.74
0.78
0.75
0.61
0.36
0.04
-0.30
-0.58
-0.74
-0.76
-0.68
-0.55
-0.45
-0.43
-0.49
-0.60
-0.68
-0.67
-0.52
-0.23
0.13
0.47
0.71
0.83
0.84
0.76
0.60
0.35
-0.02
-0.46
-0.88
-1.11
-1.05
-0.67
-0.09
0.48
0.87
0.98
0.83
0.53
0.21
-0.04
-0.21
-0.33
-0.41
-0.46
-0.45
-0.34
-0.14
0.11
0.32
0.42
0.35
0.14
-0.17
-0.46
-0.70
-0.88
-1.01
-1.12
-1.19
-1.14
-0.93
-0.54
-0.07
0.39
0.73
0.90
0.92
0.83
0.66
0.43
0.18
-0.07
-0.24
-0.30
-0.26
-0.16
-0.07
-0.02
-0.04
-0.06
-0.07
-0.02
0.07
0.17
0.25
0.26
0.21
0.13
0.06
0.06
0.17
0.41
0.72
1.02
1.21
1.21
1.01
0.68
0.35
0.13
0.08
0.16
0.30
0.38
0.34
0.20
0.00
-0.19
-0.35
-0.46
-0.57
-0.68
-0.81
-0.91
-0.91
-0.78
-0.52
-0.18
0.15
0.35
0.39
0.29
0.15
0.04
0.01
0.01
-0.05
-0.25
-0.57
-0.85
-0.95
-0.76
-0.34
0.15
0.48
0.52
0.28
-0.07
-0.35
-0.45
-0.38
-0.22
-0.05
0.08
0.19
0.28
0.33
0.27
0.07
-0.24
-0.57
-0.77
-0.78
-0.59
-0.29
0.01
0.25
0.41
0.54
0.66
0.78
0.88
0.90
0.85
0.76
0.71
0.74
0.86
0.99
1.02
0.84
0.42
-0.19
-0.84
-1.37
-1.67
-1.72
-1.54
-1.19
-0.74
-0.27
0.12
0.33
0.32
0.09
-0.22
-0.47
-0.55
-0.48
-0.36
-0.31
-0.34
-0.39
-0.36
-0.21
0.00
0.15
0.13
-0.05
-0.28
-0.41
-0.36
-0.15
0.07
0.19
0.15
0.02
-0.06
-0.01
0.21
0.54
0.87
1.11
1.24
1.30
1.34
1.35
1.30
1.11
0.76
0.30
-0.12
-0.39
-0.41
-0.23
0.06
0.30
0.40
0.32
0.12
-0.14
-0.38
-0.56
-0.63
-0.55
-0.34
-0.04
0.29
0.53
0.65
0.64
0.54
0.39
0.23
0.05
-0.15
-0.36
-0.53
-0.62
-0.63
-0.58
-0.55
-0.59
-0.70
-0.82
-0.88
-0.82
-0.65
-0.42
-0.20
-0.04
0.03
0.04
0.01
-0.04
-0.12
-0.20
-0.27
-0.28
-0.20
-0.03
0.23
0.56
0.92
1.24
1.45
1.46
1.23
0.76
0.17
-0.41
-0.87
-1.14
-1.26
-1.29
-1.26
-1.17
-0.96
-0.63
-0.18
0.26
0.60
0.76
0.76
0.70
0.67
0.75
0.87
0.94
0.84
0.57
0.20
-0.09
-0.15
0.03
0.34
0.59
0.60
0.31
-0.18
-0.68
-1.01
-1.05
-0.79
-0.32
0.23
0.72
1.04
1.15
1.04
0.79
0.49
0.24
0.09
0.04
0.02
-0.03
-0.15
-0.30
-0.44
-0.51
-0.47
-0.36
-0.25
-0.22
-0.31
-0.50
-0.71
-0.82
-0.77
-0.55
-0.22
0.07
0.21
0.13
-0.10
-0.38
-0.54
-0.51
-0.31
-0.06
0.12
0.16
0.07
-0.07
-0.17
-0.15
-0.03
0.11
0.19
0.15
-0.00
-0.17
-0.25
-0.19
-0.02
0.19
0.33
0.39
0.40
0.45
0.58
0.72
0.76
0.62
0.31
-0.03
-0.21
-0.11
0.25
0.71
1.08
1.19
1.04
0.70
0.33
-0.02
-0.33
-0.65
-0.97
-1.26
-1.41
-1.34
-1.02
-0.54
-0.06
0.25
0.33
0.24
0.14
0.19
0.43
0.76
1.03
1.09
0.92
0.60
0.27
0.03
-0.07
-0.09
-0.10
-0.15
-0.24
-0.35
-0.46
-0.58
-0.71
-0.84
-0.91
-0.88
-0.74
-0.54
-0.33
-0.18
-0.09
-0.05
0.00
0.08
0.16
0.21
0.18
0.08
-0.05
-0.13
-0.13
-0.05
0.07
0.18
0.24
0.26
0.25
0.22
0.18
0.10
-0.02
-0.19
-0.38
-0.50
-0.51
-0.32
0.08
0.61
1.16
1.57
1.74
1.66
1.40
1.10
0.87
0.79
0.86
1.04
1.29
1.54
1.76
1.93
2.05
2.14
2.26
2.49
2.88
3.42
4.02
4.54
4.86
4.91
4.70
4.28
3.75
3.19
2.61
1.99
1.25
0.31
-0.79
-1.91
-2.80
-3.29
-3.30
-2.95
-2.48
-2.14
-2.05
-2.14
-2.23
-2.13
-1.79
-1.34
-1.01
-0.99
-1.31
-1.79
-2.17
-2.22
-1.86
-1.22
-0.54
-0.14
-0.17
-0.61
-1.26
-1.82
-2.05
-1.85
-1.34
-0.75
-0.34
-0.25
-0.50
-0.95
-1.41
-1.68
-1.67
-1.37
-0.85
-0.22
0.41
0.94
1.28
1.39
1.29
1.03
0.68
0.29
-0.12
-0.50
-0.81
-1.00
-1.04
-0.94
-0.77
-0.64
-0.63
-0.76
-1.01
-1.25
-1.39
-1.33
-1.05
-0.57
0.02
0.60
1.04
1.24
1.18
0.90
0.52
0.17
-0.06
-0.16
-0.16
-0.16
-0.20
-0.27
-0.30
-0.20
0.04
0.38
0.69
0.84
0.78
0.56
0.33
0.23
0.33
0.57
0.75
0.66
0.18
-0.63
-1.57
-2.35
-2.74
-2.63
-2.11
-1.38
-0.64
-0.05
0.38
0.67
0.86
0.93
0.82
0.48
-0.04
-0.56
-0.88
-0.83
-0.42
0.19
0.74
1.05
1.07
0.91
0.72
0.61
0.54
0.42
0.16
-0.21
-0.53
-0.65
-0.50
-0.20
0.06
0.10
-0.10
-0.44
-0.72
-0.81
-0.70
-0.47
-0.26
-0.15
-0.13
-0.15
-0.18
-0.22
-0.29
-0.41
-0.52
-0.59
-0.54
-0.37
-0.11
0.15
0.31
0.31
0.14
-0.18
-0.54
-0.86
-1.06
-1.09
-0.97
-0.72
-0.42
-0.12
0.12
0.26
0.27
0.18
0.00
-0.19
-0.35
-0.45
-0.48
-0.45
-0.38
-0.33
-0.35
-0.50
-0.80
-1.16
-1.39
-1.28
-0.69
0.31
1.43
2.31
2.64
2.36
1.64
0.83
0.22
-0.05
0.00
0.21
0.43
0.57
0.62
0.57
0.42
0.19
-0.09
-0.36
-0.58
-0.70
-0.73
-0.72
-0.69
-0.66
-0.61
-0.55
-0.49
-0.45
-0.43
-0.39
-0.33
-0.25
-0.16
-0.08
-0.02
0.02
0.03
-0.03
-0.21
-0.48
-0.76
-0.92
-0.86
-0.61
-0.33
-0.20
-0.28
-0.52
-0.75
-0.78
-0.56
-0.18
0.15
0.26
0.12
-0.20
-0.55
-0.81
-0.93
-0.93
-0.84
-0.71
-0.56
-0.40
-0.26
-0.20
-0.23
-0.35
-0.51
-0.68
-0.81
-0.93
-1.08
-1.31
-1.59
-1.87
-2.10
-2.28
-2.45
-2.68
-3.02
-3.43
-3.86
-4.27
-4.69
-5.23
-5.94
-6.76
-7.45
-7.71
-7.30
-6.22
-4.71
-3.19
-2.01
-1.33
-1.08
-1.03
-0.97
-0.78
-0.48
-0.17
0.10
0.32
0.51
0.70
0.85
0.94
1.01
1.16
1.56
2.32
3.40
4.65
5.81
6.66
7.07
7.07
6.79
6.42
6.11
5.92
5.87
5.85
5.75
5.48
5.01
4.44
3.94
3.64
3.60
3.75
3.92
3.97
3.83
3.55
3.19
2.81
2.41
1.92
1.29
0.50
-0.39
-1.29
-2.11
-2.80
-3.35
-3.80
-4.17
-4.51
-4.88
-5.31
-5.80
-6.28
-6.61
-6.68
-6.43
-5.86
-5.04
-4.00
-2.77
-1.37
0.03
1.10
1.44
0.78
-0.79
-2.73
-4.33
-4.97
-4.46
-3.06
-1.33
0.28
1.58
2.69
3.84
5.09
6.29
7.14
7.46
7.28
6.89
6.64
6.78
7.23
7.77
8.04
7.82
7.10
6.13
5.27
4.85
5.00
5.57
6.22
6.48
6.00
4.63
2.50
-0.09
-2.73
-5.01
-6.59
-7.20
-6.73
-5.19
-2.76
0.23
3.36
6.20
8.42
9.83
10.38
10.17
9.37
8.22
6.94
5.72
4.66
3.77
3.00
2.29
1.59
0.91
0.26
-0.30
-0.74
-1.00
-1.07
-0.97
-0.81
-0.73
-0.90
-1.40
-2.18
-3.11
-3.98
-4.59
-4.85
-4.75
-4.34
-3.74
-3.11
-2.58
-2.25
-2.17
-2.26
-2.37
-2.37
-2.17
-1.84
-1.48
-1.22
-1.12
-1.18
-1.32
-1.50
-1.69
-1.88
-2.10
-2.37
-2.65
-2.91
-3.07
-3.08
-2.91
-2.58
-2.18
-1.83
-1.63
-1.62
-1.76
-1.94
-2.06
-2.07
-2.00
-1.89
-1.80
-1.73
-1.66
-1.58
-1.48
-1.37
-1.30
-1.28
-1.31
-1.41
-1.60
-1.87
-2.24
-2.67
-3.09
-3.42
-3.58
-3.54
-3.35
-3.12
-2.99
-3.10
-3.54
-4.30
-5.27
-6.29
-7.15
-7.72
-7.98
-8.06
-8.12
-8.28
-8.54
-8.78
-8.87
-8.80
-8.77
-9.12
-10.19
-12.07
-14.51
-16.95
-18.74
-19.48
-19.29
-18.82
-19.04
-20.76
-24.18
-28.73
-33.24
-36.56
-38.12
-38.30
-38.16
-38.88
-41.07
-44.56
-48.53
-52.16
-55.03
-57.02
-57.83
-56.75
-52.80
-45.36
-34.76
-22.46
-10.26
0.53
9.99
19.45
30.43
43.31
56.76
68.52
77.07
82.94
88.79
97.84
111.76
129.16
145.70
155.66
154.22
139.45
113.03
79.53
44.73
13.80
-10.02
-25.79
-34.64
-39.06
-41.88
-45.38
-50.69
-57.70
-65.49
-73.03
-79.55
-84.66
-88.10
-89.57
-88.69
-85.30
-79.67
-72.46
-64.58
-56.86
-49.75
-43.44
-37.74
-31.78
-23.64
-10.22
12.10
45.94
91.22
143.96
196.63
240.17
266.70
271.65
254.72
219.17
170.54
115.27
59.72
9.52
-30.96
-59.20
-74.85
-79.58
-76.47
-69.10
-60.60
-53.03
-47.30
-43.22
-40.00
-36.67
-32.31
-26.38
-18.87
-10.29
-1.55
6.28
12.19
15.47
15.89
13.69
9.49
4.08
-1.80
-7.58
-12.93
-17.60
-21.40
-24.06
-25.35
-25.21
-23.81
-21.64
-19.31
-17.39
-16.16
-15.54
-15.18
-14.61
-13.52
-11.88
-9.90
-7.99
-6.54
-5.77
-5.75
-6.34
-7.26
-8.23
-8.99
-9.37
-9.30
-8.83
-8.06
-7.18
-6.31
-5.54
-4.86
-4.21
-3.49
-2.66
-1.75
-0.84
-0.10
0.36
0.46
0.18
-0.42
-1.23
-2.12
-2.96
-3.61
-3.98
-4.03
-3.83
-3.50
-3.20
-3.00
-2.91
-2.82
-2.58
-2.12
-1.49
-0.87
-0.51
-0.58
-1.07
-1.78
-2.36
-2.52
-2.12
-1.25
-0.16
0.88
1.69
2.19
2.41
2.38
2.13
1.73
1.31
1.05
1.14
1.63
2.45
3.34
4.02
4.30
4.14
3.65
3.03
2.48
2.12
2.01
2.13
2.45
2.91
3.43
3.89
4.15
4.08
3.64
2.90
2.02
1.20
0.58
0.19
-0.03
-0.19
-0.34
-0.51
-0.67
-0.83
-1.00
-1.21
-1.47
-1.74
-1.94
-2.03
-2.00
-1.90
-1.80
-1.74
-1.73
-1.74
-1.74
-1.74
-1.74
-1.73
-1.68
-1.54
-1.27
-0.91
-0.53
-0.22
-0.03
0.05
0.07
0.10
0.15
0.23
0.31
0.37
0.41
0.41
0.35
0.22
0.01
-0.22
-0.40
-0.48
-0.44
-0.32
-0.18
-0.04
0.13
0.37
0.70
1.06
1.37
1.54
1.52
1.38
1.18
1.02
0.94
0.92
0.88
0.76
0.52
0.17
-0.23
-0.57
-0.79
-0.87
-0.84
-0.74
-0.64
-0.58
-0.59
-0.66
-0.75
-0.84
-0.89
-0.85
-0.74
-0.61
-0.53
-0.55
-0.62
-0.63
-0.47
-0.08
0.47
1.03
1.42
1.52
1.36
1.03
0.70
0.47
0.34
0.27
0.17
0.01
-0.16
-0.30
-0.35
-0.33
-0.30
-0.30
-0.33
-0.34
-0.26
-0.05
0.22
0.44
0.52
0.41
0.19
-0.05
-0.21
-0.26
-0.21
-0.13
-0.08
-0.08
-0.13
-0.22
-0.34
-0.44
-0.50
-0.50
-0.41
